num crossings	time (s)	maj axis (mm)	min axis (mm)	theta (rad )	slope (V/s)
4045	6177.158827	42.507790	10.112116	2.272259	20.612142
4049	6181.318760	71.277343	3.705137	2.054284	82.520048
4051	6183.401783	70.479311	3.803761	2.055635	76.617253
4053	6185.481336	69.723461	3.714374	2.056820	79.039268
4055	6187.558697	69.097192	3.640068	2.055232	76.766501
4057	6189.637501	68.391146	3.745674	2.053307	72.786063
4059	6191.717213	67.509695	3.785804	2.052819	72.637266
4061	6193.798804	66.815054	3.747238	2.055353	69.273105
4063	6195.879366	65.962229	3.738519	2.056474	70.516694
4065	6197.960374	65.266280	3.787208	2.056318	67.995950
4067	6200.040375	64.531274	3.743026	2.057388	69.300393
4069	6202.121319	63.818501	3.768453	2.057268	62.503302
4071	6204.200429	63.177284	3.729183	2.058447	63.768816
4073	6206.280255	62.586776	3.769848	2.059409	60.392258
4075	6208.359411	61.638122	3.708076	2.060483	59.616421
4077	6210.437590	61.098866	3.836462	2.061272	61.889435
4079	6212.516934	60.358276	3.804499	2.062856	58.419567
4081	6214.597111	59.588845	3.741980	2.063121	58.484585
4083	6216.678596	58.948957	3.776927	2.062548	56.933345
4085	6218.761097	58.159444	3.748008	2.061331	55.599151
4087	6220.841585	57.603763	3.781459	2.060697	51.949508
4089	6222.918968	56.949082	3.829499	2.062574	52.035935
4091	6224.996977	56.294331	3.769449	2.065663	51.751203
4093	6227.075886	55.641613	3.800370	2.066334	49.586329
4095	6229.157234	54.847176	3.716012	2.066907	50.922778
4097	6231.239122	54.250576	3.788830	2.065658	48.317659
4099	6233.321196	53.610607	3.847907	2.065535	46.075453
4101	6235.400752	53.068244	3.872576	2.066160	46.313508
4103	6237.479794	52.322645	3.834725	2.067015	45.421415
4105	6239.558939	51.793901	3.794607	2.069379	44.974755
4107	6241.638491	51.257262	3.817526	2.070942	42.879286
4109	6243.718560	50.550541	3.837762	2.072424	41.333058
4111	6245.798158	49.782719	3.771761	2.073581	41.555289
4113	6247.878756	49.308507	3.807762	2.072729	40.019497
4115	6249.959389	48.752599	3.803490	2.073441	39.157073
4117	6252.039401	48.193832	3.840868	2.074616	38.671058
4119	6254.119513	47.660452	3.893842	2.075496	37.372512
4121	6256.197855	47.123225	3.802180	2.075819	37.134547
4123	6258.275896	46.716688	3.837876	2.075152	35.082136
4125	6260.353575	45.862643	3.813514	2.075262	35.032277
4127	6262.432451	45.256584	3.849047	2.074102	34.709520
4129	6264.514020	44.844153	3.890263	2.075202	33.713049
4131	6266.596178	44.322671	3.836273	2.077849	32.646242
4133	6268.677792	43.786891	3.868439	2.079556	31.737965
4135	6270.757272	43.383106	3.844273	2.079950	31.372806
4137	6272.835590	43.032014	3.872323	2.079831	30.523903
4139	6274.913218	42.496786	3.873893	2.078325	29.544668
4141	6276.991180	41.923777	3.861955	2.077480	28.592469
4143	6279.069874	41.274219	3.823045	2.078485	28.089901
4145	6281.149611	40.829845	3.778809	2.079236	27.531372
4147	6283.229664	40.386783	3.798777	2.080056	26.663830
4149	6285.308917	39.964249	3.817870	2.081042	27.093388
4151	6287.388462	39.564126	3.822843	2.082758	25.911305
4153	6289.467423	39.047933	3.789533	2.083900	24.867006
4155	6291.547331	38.584751	3.740370	2.084976	24.970771
4157	6293.626867	38.172799	3.763260	2.086406	23.786935
4159	6295.708027	37.688211	3.758837	2.086843	23.595753
4161	6297.787818	37.190123	3.713644	2.087041	22.369491
4163	6299.870990	36.548487	3.664761	2.087570	22.106317
4165	6301.952880	36.088582	3.689780	2.087025	22.427817
4167	6304.032959	35.903155	3.696949	2.087773	21.170654
4169	6306.110339	35.383407	3.631032	2.089048	21.068686
4171	6308.187210	35.171958	3.635650	2.092375	20.257205
4173	6310.264285	34.763537	3.637005	2.094761	19.609911
4175	6312.343157	34.240435	3.585318	2.095599	19.444279
4177	6314.423359	33.853049	3.583247	2.096001	19.013881
4179	6316.505760	33.185757	3.528125	2.095612	18.616420
4181	6318.588077	33.057320	3.537686	2.096027	17.948177
4183	6320.668676	32.515984	3.491843	2.096183	17.414023
4185	6322.749449	32.091678	3.497003	2.097904	17.666310
4187	6324.829158	31.750623	3.495016	2.098964	16.411785
4189	6326.909659	31.349038	3.436050	2.099803	16.594995
4191	6328.988177	31.031285	3.416051	2.101417	15.702036
4193	6331.069114	30.584777	3.396147	2.102419	15.390178
4195	6333.146885	30.176312	3.394335	2.103677	14.946466
4197	6335.225131	30.022773	3.370818	2.104958	14.445861
4199	6337.305073	29.614099	3.364421	2.104764	14.302920
4201	6339.380367	29.325971	3.326421	2.104561	13.433279
4203	6341.458276	28.854966	3.320086	2.102856	13.830473
4205	6343.535357	28.516994	3.282568	2.102093	13.357277
4207	6345.615293	28.133224	3.274046	2.103466	12.881309
4209	6347.696758	27.735818	3.225057	2.106603	13.130072
4211	6349.780549	27.331670	3.200826	2.109946	12.933278
4213	6351.862627	27.005280	3.155127	2.112809	12.155144
4215	6353.944610	26.709015	3.145284	2.114042	11.631209
4217	6356.021638	26.363204	3.138028	2.113593	10.994218
4219	6358.099323	26.084015	3.093581	2.112030	11.200840
4221	6360.176533	25.782314	3.093098	2.110384	10.538501
4223	6362.255137	25.501681	3.065842	2.110427	9.674387
4225	6364.330756	25.201092	3.053869	2.110036	11.128720
4227	6366.411034	24.753618	3.046133	2.111390	9.711988
4229	6368.489666	24.553009	3.002280	2.111569	9.568705
4231	6370.571126	24.216898	2.991310	2.113092	9.318200
4233	6372.648473	23.872201	2.952825	2.112871	9.774592
4235	6374.730929	23.573025	2.938164	2.115507	9.201789
4237	6376.813520	23.274826	2.921845	2.117447	9.160503
4239	6378.893171	22.987943	2.880300	2.118548	8.590690
4241	6380.975093	22.679012	2.857183	2.118849	8.067825
4243	6383.056781	22.384104	2.833315	2.118409	8.156933
4245	6385.137974	22.132139	2.818966	2.117699	8.159267
4247	6387.218571	21.877575	2.818514	2.117689	7.652668
4249	6389.291840	21.685818	2.767258	2.119066	7.316545
